X--Trace 1::[Channel A],Y--Trace 1::[Channel A]
0,0
6.25e-008,0.00555359
1.25e-007,0.0111071
2.5e-007,0.0222135
5e-007,0.0444215
1e-006,0.0887992
2e-006,0.177248
4e-006,0.351701
8e-006,0.681303
1.425e-005,1.1037
2.05e-005,1.35806
2.675e-005,1.40567
3.3e-005,1.23928
3.925e-005,0.884227
4.55e-005,0.394553
5.175e-005,-0.155188
5.8e-005,-0.681303
6.425e-005,-1.1037
7.05e-005,-1.35806
7.675e-005,-1.40567
8.3e-005,-1.23928
8.925e-005,-0.884227
9.55e-005,-0.394553
0.00010175,0.155188
0.000108,0.681303
0.00011425,1.1037
0.0001205,1.35806
0.00012675,1.40567
0.000133,1.23928
0.00013925,0.884227
0.0001455,0.394553
0.00015175,-0.155188
0.000158,-0.681303
0.00016425,-1.1037
0.0001705,-1.35806
0.00017675,-1.40567
0.000183,-1.23928
0.00018925,-0.884227
0.0001955,-0.394553
0.00020175,0.155188
0.000208,0.681303
0.00021425,1.1037
0.0002205,1.35806
0.00022675,1.40567
0.000233,1.23928
0.00023925,0.884227
0.0002455,0.394553
0.00025175,-0.155188
0.000258,-0.681303
0.00026425,-1.1037
0.0002705,-1.35806
0.00027675,-1.40567
0.000283,-1.23928
0.00028925,-0.884227
0.0002955,-0.394553
0.00030175,0.155188
0.000308,0.681303
0.00031425,1.1037
0.0003205,1.35806
0.00032675,1.40567
0.000333,1.23928
0.00033925,0.884227
0.0003455,0.394553
0.00035175,-0.155188
0.000358,-0.681303
0.00036425,-1.1037
0.0003705,-1.35806
0.00037675,-1.40567
0.000383,-1.23928
0.00038925,-0.884227
0.0003955,-0.394553
0.00040175,0.155188
0.000408,0.681303
0.00041425,1.1037
0.0004205,1.35806
0.00042675,1.40567
0.000433,1.23928
0.00043925,0.884227
0.0004455,0.394553
0.00045175,-0.155188
0.000458,-0.681303
0.00046425,-1.1037
0.0004705,-1.35806
0.00047675,-1.40567
0.000483,-1.23928
0.00048925,-0.884227
0.0004955,-0.394553
0.00050175,0.155188
0.000508,0.681303
0.00051425,1.1037
0.0005205,1.35806
0.00052675,1.40567
0.000533,1.23928
0.00053925,0.884227
0.0005455,0.394553
0.00055175,-0.155188
0.000558,-0.681303
0.00056425,-1.1037
0.0005705,-1.35806
0.00057675,-1.40567
0.000583,-1.23928
0.00058925,-0.884227
0.0005955,-0.394553
0.00060175,0.155188
0.000608,0.681303
0.00061425,1.1037
0.0006205,1.35806
0.00062675,1.40567
0.000633,1.23928
0.00063925,0.884227
0.0006455,0.394553
0.00065175,-0.155188
0.000658,-0.681303
0.00066425,-1.1037
0.0006705,-1.35806
0.00067675,-1.40567
0.000683,-1.23928
0.00068925,-0.884227
0.0006955,-0.394553
0.00070175,0.155188
0.000708,0.681303
0.00071425,1.1037
0.0007205,1.35806
0.00072675,1.40567
0.000733,1.23928
0.00073925,0.884227
0.0007455,0.394553
0.00075175,-0.155188
0.000758,-0.681303
0.00076425,-1.1037
0.0007705,-1.35806
0.00077675,-1.40567
0.000783,-1.23928
0.00078925,-0.884227
0.0007955,-0.394553
0.00080175,0.155188
0.000808,0.681303
0.00081425,1.1037
0.0008205,1.35806
0.00082675,1.40567
0.000833,1.23928
0.00083925,0.884227
0.0008455,0.394553
0.00085175,-0.155188
0.000858,-0.681303
0.00086425,-1.1037
0.0008705,-1.35806
0.00087675,-1.40567
0.000883,-1.23928
0.00088925,-0.884227
0.0008955,-0.394553
0.00090175,0.155188
0.000908,0.681303
0.00091425,1.1037
0.0009205,1.35806
0.00092675,1.40567
0.000933,1.23928
0.00093925,0.884227
0.0009455,0.394553
0.00095175,-0.155188
0.000958,-0.681303
0.00096425,-1.1037
0.0009705,-1.35806
0.00097675,-1.40567
0.000983,-1.23928
0.00098925,-0.884227
0.0009955,-0.394553
0.00100175,0.155188
0.001008,0.681303
0.00101425,1.1037
0.0010205,1.35806
0.00102675,1.40567
0.001033,1.23928
0.00103925,0.884227
0.0010455,0.394553
0.00105175,-0.155188
0.001058,-0.681303
0.00106425,-1.1037
0.0010705,-1.35806
0.00107675,-1.40567
0.001083,-1.23928
0.00108925,-0.884227
0.0010955,-0.394553
0.00110175,0.155188
0.001108,0.681303
0.00111425,1.1037
0.0011205,1.35806
0.00112675,1.40567
0.001133,1.23928
0.00113925,0.884227
0.0011455,0.394553
0.00115175,-0.155188
0.001158,-0.681303
0.00116425,-1.1037
0.0011705,-1.35806
0.00117675,-1.40567
0.001183,-1.23928
0.00118925,-0.884227
0.0011955,-0.394553
0.00120175,0.155188
0.001208,0.681303
0.00121425,1.1037
0.0012205,1.35806
0.00122675,1.40567
0.001233,1.23928
0.00123925,0.884227
0.0012455,0.394553
0.00125175,-0.155188
0.001258,-0.681303
0.00126425,-1.1037
0.0012705,-1.35806
0.00127675,-1.40567
0.001283,-1.23928
0.00128925,-0.884227
0.0012955,-0.394553
0.00130175,0.155188
0.001308,0.681303
0.00131425,1.1037
0.0013205,1.35806
0.00132675,1.40567
0.001333,1.23928
0.00133925,0.884227
0.0013455,0.394553
0.00135175,-0.155188
0.001358,-0.681303
0.00136425,-1.1037
0.0013705,-1.35806
0.00137675,-1.40567
0.001383,-1.23928
0.00138925,-0.884227
0.0013955,-0.394553
0.00140175,0.155188
0.001408,0.681303
0.00141425,1.1037
0.0014205,1.35806
0.00142675,1.40567
0.001433,1.23928
0.00143925,0.884227
0.0014455,0.394553
0.00145175,-0.155188
0.001458,-0.681303
0.00146425,-1.1037
0.0014705,-1.35806
0.00147675,-1.40567
0.001483,-1.23928
0.00148925,-0.884227
0.0014955,-0.394553
0.00150175,0.155188
0.001508,0.681303
0.00151425,1.1037
0.0015205,1.35806
0.00152675,1.40567
0.001533,1.23928
0.00153925,0.884227
0.0015455,0.394553
0.00155175,-0.155188
0.001558,-0.681303
0.00156425,-1.1037
0.0015705,-1.35806
0.00157675,-1.40567
0.001583,-1.23928
0.00158925,-0.884227
0.0015955,-0.394553
0.00160175,0.155188
0.001608,0.681303
0.00161425,1.1037
0.0016205,1.35806
0.00162675,1.40567
0.001633,1.23928
0.00163925,0.884227
0.0016455,0.394553
0.00165175,-0.155188
0.001658,-0.681303
0.00166425,-1.1037
0.0016705,-1.35806
0.00167675,-1.40567
0.001683,-1.23928
0.00168925,-0.884227
0.0016955,-0.394553
0.00170175,0.155188
0.001708,0.681303
0.00171425,1.1037
0.0017205,1.35806
0.00172675,1.40567
0.001733,1.23928
0.00173925,0.884227
0.0017455,0.394553
0.00175175,-0.155188
0.001758,-0.681303
0.00176425,-1.1037
0.0017705,-1.35806
0.00177675,-1.40567
0.001783,-1.23928
0.00178925,-0.884227
0.0017955,-0.394553
0.00180175,0.155188
0.001808,0.681303
0.00181425,1.1037
0.0018205,1.35806
0.00182675,1.40567
0.001833,1.23928
0.00183925,0.884227
0.0018455,0.394553
0.00185175,-0.155188
0.001858,-0.681303
0.00186425,-1.1037
0.0018705,-1.35806
0.00187675,-1.40567
0.001883,-1.23928
0.00188925,-0.884227
0.0018955,-0.394553
0.00190175,0.155188
0.001908,0.681303
0.00191425,1.1037
0.0019205,1.35806
0.00192675,1.40567
0.001933,1.23928
0.00193925,0.884227
0.0019455,0.394553
0.00195175,-0.155188
0.001958,-0.681303
0.00196425,-1.1037
0.0019705,-1.35806
0.00197675,-1.40567
0.001983,-1.23928
0.00198925,-0.884227
0.0019955,-0.394553
0.00200175,0.155188
0.002008,0.681303
0.00201425,1.1037
0.0020205,1.35806
0.00202675,1.40567
0.002033,1.23928
0.00203925,0.884227
0.0020455,0.394553
0.00205175,-0.155188
0.002058,-0.681303
0.00206425,-1.1037
0.0020705,-1.35806
0.00207675,-1.40567
0.002083,-1.23928
0.00208925,-0.884227
0.0020955,-0.394553
0.00210175,0.155188
0.002108,0.681303
0.00211425,1.1037
0.0021205,1.35806
0.00212675,1.40567
0.002133,1.23928
0.00213925,0.884227
0.0021455,0.394553
0.00215175,-0.155188
0.002158,-0.681303
0.00216425,-1.1037
0.0021705,-1.35806
0.00217675,-1.40567
0.002183,-1.23928
0.00218925,-0.884227
0.0021955,-0.394553
0.00220175,0.155188
0.002208,0.681303
0.00221425,1.1037
0.0022205,1.35806
0.00222675,1.40567
0.002233,1.23928
0.00223925,0.884227
0.0022455,0.394553
0.00225175,-0.155188
0.002258,-0.681303
0.00226425,-1.1037
0.0022705,-1.35806
0.00227675,-1.40567
0.002283,-1.23928
0.00228925,-0.884227
0.0022955,-0.394553
0.00230175,0.155188
0.002308,0.681303
0.00231425,1.1037
0.0023205,1.35806
0.00232675,1.40567
0.002333,1.23928
0.00233925,0.884227
0.0023455,0.394553
0.00235175,-0.155188
0.002358,-0.681303
0.00236425,-1.1037
0.0023705,-1.35806
0.00237675,-1.40567
0.002383,-1.23928
0.00238925,-0.884227
0.0023955,-0.394553
0.00240175,0.155188
0.002408,0.681303
0.00241425,1.1037
0.0024205,1.35806
0.00242675,1.40567
0.002433,1.23928
0.00243925,0.884227
0.0024455,0.394553
0.00245175,-0.155188
0.002458,-0.681303
0.00246425,-1.1037
0.0024705,-1.35806
0.00247675,-1.40567
0.002483,-1.23928
0.00248925,-0.884227
0.0024955,-0.394553
0.00250175,0.155188
0.002508,0.681303
0.00251425,1.1037
0.0025205,1.35806
0.00252675,1.40567
0.002533,1.23928
0.00253925,0.884227
0.0025455,0.394553
0.00255175,-0.155188
0.002558,-0.681303
0.00256425,-1.1037
0.0025705,-1.35806
0.00257675,-1.40567
0.002583,-1.23928
0.00258925,-0.884227
0.0025955,-0.394553
0.00260175,0.155188
0.002608,0.681303
0.00261425,1.1037
0.0026205,1.35806
0.00262675,1.40567
0.002633,1.23928
0.00263925,0.884227
0.0026455,0.394553
0.00265175,-0.155188
0.002658,-0.681303
0.00266425,-1.1037
0.0026705,-1.35806
0.00267675,-1.40567
0.002683,-1.23928
0.00268925,-0.884227
0.0026955,-0.394553
0.00270175,0.155188
0.002708,0.681303
0.00271425,1.1037
0.0027205,1.35806
0.00272675,1.40567
0.002733,1.23928
0.00273925,0.884227
0.0027455,0.394553
0.00275175,-0.155188
0.002758,-0.681303
0.00276425,-1.1037
0.0027705,-1.35806
0.00277675,-1.40567
0.002783,-1.23928
0.00278925,-0.884227
0.0027955,-0.394553
0.00280175,0.155188
0.002808,0.681303
0.00281425,1.1037
0.0028205,1.35806
0.00282675,1.40567
0.002833,1.23928
0.00283925,0.884227
0.0028455,0.394553
0.00285175,-0.155188
0.002858,-0.681303
0.00286425,-1.1037
0.0028705,-1.35806
0.00287675,-1.40567
0.002883,-1.23928
0.00288925,-0.884227
0.0028955,-0.394553
0.00290175,0.155188
0.002908,0.681303
0.00291425,1.1037
0.0029205,1.35806
0.00292675,1.40567
0.002933,1.23928
0.00293925,0.884227
0.0029455,0.394553
0.00295175,-0.155188
0.002958,-0.681303
0.00296425,-1.1037
0.0029705,-1.35806
0.00297675,-1.40567
0.002983,-1.23928
0.00298925,-0.884227
0.0029955,-0.394553
0.00300175,0.155188
0.003008,0.681303
0.00301425,1.1037
0.0030205,1.35806
0.00302675,1.40567
0.003033,1.23928
0.00303925,0.884227
0.0030455,0.394553
0.00305175,-0.155188
0.003058,-0.681303
0.00306425,-1.1037
0.0030705,-1.35806
0.00307675,-1.40567
0.003083,-1.23928
0.00308925,-0.884227
0.0030955,-0.394553
0.00310175,0.155188
0.003108,0.681303
0.00311425,1.1037
0.0031205,1.35806
0.00312675,1.40567
0.003133,1.23928
0.00313925,0.884227
0.0031455,0.394553
0.00315175,-0.155188
0.003158,-0.681303
0.00316425,-1.1037
0.0031705,-1.35806
0.00317675,-1.40567
0.003183,-1.23928
0.00318925,-0.884227
0.0031955,-0.394553
0.00320175,0.155188
0.003208,0.681303
0.00321425,1.1037
0.0032205,1.35806
0.00322675,1.40567
0.003233,1.23928
0.00323925,0.884227
0.0032455,0.394553
0.00325175,-0.155188
0.003258,-0.681303
0.00326425,-1.1037
0.0032705,-1.35806
0.00327675,-1.40567
0.003283,-1.23928
0.00328925,-0.884227
0.0032955,-0.394553
0.00330175,0.155188
0.003308,0.681303
0.00331425,1.1037
0.0033205,1.35806
0.00332675,1.40567
0.003333,1.23928
0.00333925,0.884227
0.0033455,0.394553
0.00335175,-0.155188
0.003358,-0.681303
0.00336425,-1.1037
0.0033705,-1.35806
0.00337675,-1.40567
0.003383,-1.23928
0.00338925,-0.884227
0.0033955,-0.394553
0.00340175,0.155188
0.003408,0.681303
0.00341425,1.1037
0.0034205,1.35806
0.00342675,1.40567
0.003433,1.23928
0.00343925,0.884227
0.0034455,0.394553
0.00345175,-0.155188
0.003458,-0.681303
0.00346425,-1.1037
0.0034705,-1.35806
0.00347675,-1.40567
0.003483,-1.23928
0.00348925,-0.884227
0.0034955,-0.394553
0.00350175,0.155188
0.003508,0.681303
0.00351425,1.1037
0.0035205,1.35806
0.00352675,1.40567
0.003533,1.23928
0.00353925,0.884227
0.0035455,0.394553
0.00355175,-0.155188
0.003558,-0.681303
0.00356425,-1.1037
0.0035705,-1.35806
0.00357675,-1.40567
0.003583,-1.23928
0.00358925,-0.884227
0.0035955,-0.394553
0.00360175,0.155188
0.003608,0.681303
0.00361425,1.1037
0.0036205,1.35806
0.00362675,1.40567
0.003633,1.23928
0.00363925,0.884227
0.0036455,0.394553
0.00365175,-0.155188
0.003658,-0.681303
0.00366425,-1.1037
0.0036705,-1.35806
0.00367675,-1.40567
0.003683,-1.23928
0.00368925,-0.884227
0.0036955,-0.394553
0.00370175,0.155188
0.003708,0.681303
0.00371425,1.1037
0.0037205,1.35806
0.00372675,1.40567
0.003733,1.23928
0.00373925,0.884227
0.0037455,0.394553
0.00375175,-0.155188
0.003758,-0.681303
0.00376425,-1.1037
0.0037705,-1.35806
0.00377675,-1.40567
0.003783,-1.23928
0.00378925,-0.884227
0.0037955,-0.394553
0.00380175,0.155188
0.003808,0.681303
0.00381425,1.1037
0.0038205,1.35806
0.00382675,1.40567
0.003833,1.23928
0.00383925,0.884227
0.0038455,0.394553
0.00385175,-0.155188
0.003858,-0.681303
0.00386425,-1.1037
0.0038705,-1.35806
0.00387675,-1.40567
0.003883,-1.23928
0.00388925,-0.884227
0.0038955,-0.394553
0.00390175,0.155188
0.003908,0.681303
0.00391425,1.1037
0.0039205,1.35806
0.00392675,1.40567
0.003933,1.23928
0.00393925,0.884227
0.0039455,0.394553
0.00395175,-0.155188
0.003958,-0.681303
0.00396425,-1.1037
0.0039705,-1.35806
0.00397675,-1.40567
0.003983,-1.23928
0.00398925,-0.884227
0.0039955,-0.394553
0.00400175,0.155188
0.004008,0.681303
0.00401425,1.1037
0.0040205,1.35806
0.00402675,1.40567
0.004033,1.23928
0.00403925,0.884227
0.0040455,0.394553
0.00405175,-0.155188
0.004058,-0.681303
0.00406425,-1.1037
0.0040705,-1.35806
0.00407675,-1.40567
0.004083,-1.23928
0.00408925,-0.884227
0.0040955,-0.394553
0.00410175,0.155188
0.004108,0.681303
0.00411425,1.1037
0.0041205,1.35806
0.00412675,1.40567
0.004133,1.23928
0.00413925,0.884227
0.0041455,0.394553
0.00415175,-0.155188
0.004158,-0.681303
0.00416425,-1.1037
0.0041705,-1.35806
0.00417675,-1.40567
0.004183,-1.23928
0.00418925,-0.884227
0.0041955,-0.394553
0.00420175,0.155188
0.004208,0.681303
0.00421425,1.1037
0.0042205,1.35806
0.00422675,1.40567
0.004233,1.23928
0.00423925,0.884227
0.0042455,0.394553
0.00425175,-0.155188
0.004258,-0.681303
0.00426425,-1.1037
0.0042705,-1.35806
0.00427675,-1.40567
0.004283,-1.23928
0.00428925,-0.884227
0.0042955,-0.394553
0.00430175,0.155188
0.004308,0.681303
0.00431425,1.1037
0.0043205,1.35806
0.00432675,1.40567
0.004333,1.23928
0.00433925,0.884227
0.0043455,0.394553
0.00435175,-0.155188
0.004358,-0.681303
0.00436425,-1.1037
0.0043705,-1.35806
0.00437675,-1.40567
0.004383,-1.23928
0.00438925,-0.884227
0.0043955,-0.394553
0.00440175,0.155188
0.004408,0.681303
0.00441425,1.1037
0.0044205,1.35806
0.00442675,1.40567
0.004433,1.23928
0.00443925,0.884227
0.0044455,0.394553
0.00445175,-0.155188
0.004458,-0.681303
0.00446425,-1.1037
0.0044705,-1.35806
0.00447675,-1.40567
0.004483,-1.23928
0.00448925,-0.884227
0.0044955,-0.394553
0.00450175,0.155188
0.004508,0.681303
0.00451425,1.1037
0.0045205,1.35806
0.00452675,1.40567
0.004533,1.23928
0.00453925,0.884227
0.0045455,0.394553
0.00455175,-0.155188
0.004558,-0.681303
0.00456425,-1.1037
0.0045705,-1.35806
0.00457675,-1.40567
0.004583,-1.23928
0.00458925,-0.884227
0.0045955,-0.394553
0.00460175,0.155188
0.004608,0.681303
0.00461425,1.1037
0.0046205,1.35806
0.00462675,1.40567
0.004633,1.23928
0.00463925,0.884227
0.0046455,0.394553
0.00465175,-0.155188
0.004658,-0.681303
0.00466425,-1.1037
0.0046705,-1.35806
0.00467675,-1.40567
0.004683,-1.23928
0.00468925,-0.884227
0.0046955,-0.394553
0.00470175,0.155188
0.004708,0.681303
0.00471425,1.1037
0.0047205,1.35806
0.00472675,1.40567
0.004733,1.23928
0.00473925,0.884227
0.0047455,0.394553
0.00475175,-0.155188
0.004758,-0.681303
0.00476425,-1.1037
0.0047705,-1.35806
0.00477675,-1.40567
0.004783,-1.23928
0.00478925,-0.884227
0.0047955,-0.394553
0.00480175,0.155188
0.004808,0.681303
0.00481425,1.1037
0.0048205,1.35806
0.00482675,1.40567
0.004833,1.23928
0.00483925,0.884227
0.0048455,0.394553
0.00485175,-0.155188
0.004858,-0.681303
0.00486425,-1.1037
0.0048705,-1.35806
0.00487675,-1.40567
0.004883,-1.23928
0.00488925,-0.884227
0.0048955,-0.394553
0.00490175,0.155188
0.004908,0.681303
0.00491425,1.1037
0.0049205,1.35806
0.00492675,1.40567
0.004933,1.23928
0.00493925,0.884227
0.0049455,0.394553
0.00495175,-0.155188
0.004958,-0.681303
0.00496425,-1.1037
0.0049705,-1.35806
0.00497675,-1.40567
0.004983,-1.23928
0.00498925,-0.884227
0.0049955,-0.394553
0.00500175,0.155188
0.005008,0.681303
0.00501425,1.1037
0.0050205,1.35806
0.00502675,1.40567
0.005033,1.23928
0.00503925,0.884227
0.0050455,0.394553
0.00505175,-0.155188
0.005058,-0.681303
0.00506425,-1.1037
0.0050705,-1.35806
0.00507675,-1.40567
0.005083,-1.23928
0.00508925,-0.884227
0.0050955,-0.394553
0.00510175,0.155188
0.005108,0.681303
0.00511425,1.1037
0.0051205,1.35806
0.00512675,1.40567
0.005133,1.23928
0.00513925,0.884227
0.0051455,0.394553
0.00515175,-0.155188
0.005158,-0.681303
0.00516425,-1.1037
0.0051705,-1.35806
0.00517675,-1.40567
0.005183,-1.23928
0.00518925,-0.884227
0.0051955,-0.394553
0.00520175,0.155188
0.005208,0.681303
0.00521425,1.1037
0.0052205,1.35806
0.00522675,1.40567
0.005233,1.23928
0.00523925,0.884227
0.0052455,0.394553
0.00525175,-0.155188
0.005258,-0.681303
0.00526425,-1.1037
0.0052705,-1.35806
0.00527675,-1.40567
0.005283,-1.23928
0.00528925,-0.884227
0.0052955,-0.394553
0.00530175,0.155188
0.005308,0.681303
0.00531425,1.1037
0.0053205,1.35806
0.00532675,1.40567
0.005333,1.23928
0.00533925,0.884227
0.0053455,0.394553
0.00535175,-0.155188
0.005358,-0.681303
0.00536425,-1.1037
0.0053705,-1.35806
0.00537675,-1.40567
0.005383,-1.23928
0.00538925,-0.884227
0.0053955,-0.394553
0.00540175,0.155188
0.005408,0.681303
0.00541425,1.1037
0.0054205,1.35806
0.00542675,1.40567
0.005433,1.23928
0.00543925,0.884227
0.0054455,0.394553
0.00545175,-0.155188
0.005458,-0.681303
0.00546425,-1.1037
0.0054705,-1.35806
0.00547675,-1.40567
0.005483,-1.23928
0.00548925,-0.884227
0.0054955,-0.394553
0.00550175,0.155188
0.005508,0.681303
0.00551425,1.1037
0.0055205,1.35806
0.00552675,1.40567
0.005533,1.23928
0.00553925,0.884227
0.0055455,0.394553
0.00555175,-0.155188
0.005558,-0.681303
0.00556425,-1.1037
0.0055705,-1.35806
0.00557675,-1.40567
0.005583,-1.23928
0.00558925,-0.884227
0.0055955,-0.394553
0.00560175,0.155188
0.005608,0.681303
0.00561425,1.1037
0.0056205,1.35806
0.00562675,1.40567
0.005633,1.23928
0.00563925,0.884227
0.0056455,0.394553
0.00565175,-0.155188
0.005658,-0.681303
0.00566425,-1.1037
0.0056705,-1.35806
0.00567675,-1.40567
0.005683,-1.23928
0.00568925,-0.884227
0.0056955,-0.394553
0.00570175,0.155188
0.005708,0.681303
0.00571425,1.1037
0.0057205,1.35806
0.00572675,1.40567
0.005733,1.23928
0.00573925,0.884227
0.0057455,0.394553
0.00575175,-0.155188
0.005758,-0.681303
0.00576425,-1.1037
0.0057705,-1.35806
0.00577675,-1.40567
0.005783,-1.23928
0.00578925,-0.884227
0.0057955,-0.394553
0.00580175,0.155188
0.005808,0.681303
0.00581425,1.1037
0.0058205,1.35806
0.00582675,1.40567
0.005833,1.23928
0.00583925,0.884227
0.0058455,0.394553
0.00585175,-0.155188
0.005858,-0.681303
0.00586425,-1.1037
0.0058705,-1.35806
0.00587675,-1.40567
0.005883,-1.23928
0.00588925,-0.884227
0.0058955,-0.394553
0.00590175,0.155188
0.005908,0.681303
0.00591425,1.1037
0.0059205,1.35806
0.00592675,1.40567
0.005933,1.23928
0.00593925,0.884227
0.0059455,0.394553
0.00595175,-0.155188
0.005958,-0.681303
0.00596425,-1.1037
0.0059705,-1.35806
0.00597675,-1.40567
0.005983,-1.23928
0.00598925,-0.884227
0.0059955,-0.394553
0.00600175,0.155188
0.006008,0.681303
0.00601425,1.1037
0.0060205,1.35806
0.00602675,1.40567
0.006033,1.23928
0.00603925,0.884227
0.0060455,0.394553
0.00605175,-0.155188
0.006058,-0.681303
0.00606425,-1.1037
0.0060705,-1.35806
0.00607675,-1.40567
0.006083,-1.23928
0.00608925,-0.884227
0.0060955,-0.394553
0.00610175,0.155188
0.006108,0.681303
0.00611425,1.1037
0.0061205,1.35806
0.00612675,1.40567
0.006133,1.23928
0.00613925,0.884227
0.0061455,0.394553
0.00615175,-0.155188
